	 height_(km) 	 press_(mbar) 	 temp_(K) 	 temperr_(K) 	 numdens_(m-3) 	 numdenserr_(m-3) 	 H2Ovmr_() 	 H2Ovmrerr_() 	 D/H_(VSMOW) 	 D/Herr_(VSMOW) 	 18O/16O_(VSMOW) 	 18O/16Oerr_(VSMOW) 
	  4.6420 	 2.551547e+00 	 133.2692 	  2.0988 	 1.388788e+23 	 2.270048e+21 	 2.483271e-08 	 9.212805e-09 	 -1000.0000 	 -1000.0000 	 -1000.0000 	 -1000.0000 
	  4.8620 	 2.471301e+00 	 133.5385 	  1.9081 	 1.340383e+23 	 2.001223e+21 	 2.415789e-08 	 8.452883e-09 	 -1000.0000 	 -1000.0000 	 -1000.0000 	 -1000.0000 
	  5.0810 	 2.394254e+00 	 134.0169 	  1.7351 	 1.293040e+23 	 1.763432e+21 	 2.337631e-08 	 7.739754e-09 	 -1000.0000 	 -1000.0000 	 -1000.0000 	 -1000.0000 
	  5.3010 	 2.319613e+00 	 134.6753 	  1.5775 	 1.246446e+23 	 1.552567e+21 	 2.249943e-08 	 7.066939e-09 	 -1000.0000 	 -1000.0000 	 -1000.0000 	 -1000.0000 
	  5.5210 	 2.247647e+00 	 135.4786 	  1.4355 	 1.200943e+23 	 1.367837e+21 	 2.154926e-08 	 6.437829e-09 	 -1000.0000 	 -1000.0000 	 -1000.0000 	 -1000.0000 
	  6.0370 	 2.088837e+00 	 137.7405 	  1.1598 	 1.099179e+23 	 1.026044e+21 	 1.913931e-08 	 5.133947e-09 	 -1000.0000 	 -1000.0000 	 -1000.0000 	 -1000.0000 
	  6.2560 	 2.025452e+00 	 138.7800 	  1.0655 	 1.058384e+23 	 9.150762e+20 	 1.808454e-08 	 4.653400e-09 	 -1000.0000 	 -1000.0000 	 -1000.0000 	 -1000.0000 
	  6.4750 	 1.964331e+00 	 139.8190 	  0.9838 	 1.019189e+23 	 8.216422e+20 	 1.703750e-08 	 4.216311e-09 	 -1000.0000 	 -1000.0000 	 -1000.0000 	 -1000.0000 
	  6.6940 	 1.905387e+00 	 140.8243 	  0.9141 	 9.817149e+22 	 7.438236e+20 	 1.601660e-08 	 3.822717e-09 	 -1000.0000 	 -1000.0000 	 -1000.0000 	 -1000.0000 
	  6.9130 	 1.848532e+00 	 141.7630 	  0.8557 	 9.460805e+22 	 6.797025e+20 	 1.504026e-08 	 3.472651e-09 	 -1000.0000 	 -1000.0000 	 -1000.0000 	 -1000.0000 
	  7.4370 	 1.720445e+00 	 143.5421 	  0.7578 	 8.689960e+22 	 5.704774e+20 	 1.299459e-08 	 2.811932e-09 	 -1000.0000 	 -1000.0000 	 -1000.0000 	 -1000.0000 
	  7.6560 	 1.670015e+00 	 144.0115 	  0.7328 	 8.404738e+22 	 5.385782e+20 	 1.230522e-08 	 2.609517e-09 	 -1000.0000 	 -1000.0000 	 -1000.0000 	 -1000.0000 
	  7.8750 	 1.621273e+00 	 144.3110 	  0.7157 	 8.140402e+22 	 5.125303e+20 	 1.172053e-08 	 2.446897e-09 	 -1000.0000 	 -1000.0000 	 -1000.0000 	 -1000.0000 
	  8.0940 	 1.574114e+00 	 144.4697 	  0.7049 	 7.894069e+22 	 4.912708e+20 	 1.122819e-08 	 2.318367e-09 	 -1000.0000 	 -1000.0000 	 -1000.0000 	 -1000.0000 
	  8.3130 	 1.528430e+00 	 144.5166 	  0.6989 	 7.662829e+22 	 4.737422e+20 	 1.081567e-08 	 2.218185e-09 	 -1000.0000 	 -1000.0000 	 -1000.0000 	 -1000.0000 
	  8.8220 	 1.427359e+00 	 144.3577 	  0.6948 	 7.167485e+22 	 4.415261e+20 	 1.009557e-08 	 2.062890e-09 	 -1000.0000 	 -1000.0000 	 -1000.0000 	 -1000.0000 
	  9.0410 	 1.385822e+00 	 144.2429 	  0.6938 	 6.965653e+22 	 4.288568e+20 	 9.859505e-09 	 2.016029e-09 	 -1000.0000 	 -1000.0000 	 -1000.0000 	 -1000.0000 
	  9.2590 	 1.345554e+00 	 144.1265 	  0.6922 	 6.769225e+22 	 4.161937e+20 	 9.664474e-09 	 1.977540e-09 	 -1000.0000 	 -1000.0000 	 -1000.0000 	 -1000.0000 
	  9.4780 	 1.306184e+00 	 144.0111 	  0.6901 	 6.576443e+22 	 4.035300e+20 	 9.517637e-09 	 1.948251e-09 	 -1000.0000 	 -1000.0000 	 -1000.0000 	 -1000.0000 
	  9.6960 	 1.268072e+00 	 143.9017 	  0.6880 	 6.389129e+22 	 3.910973e+20 	 9.429362e-09 	 1.929648e-09 	 -1000.0000 	 -1000.0000 	 -1000.0000 	 -1000.0000 
	 10.2120 	 1.182140e+00 	 143.6848 	  0.6837 	 5.964366e+22 	 3.630283e+20 	 9.502787e-09 	 1.934616e-09 	 -1000.0000 	 -1000.0000 	 -1000.0000 	 -1000.0000 
	 10.4310 	 1.147485e+00 	 143.6190 	  0.6829 	 5.792149e+22 	 3.519697e+20 	 9.675525e-09 	 1.960449e-09 	 -1000.0000 	 -1000.0000 	 -1000.0000 	 -1000.0000 
	 10.6490 	 1.114033e+00 	 143.5649 	  0.6828 	 5.625595e+22 	 3.415325e+20 	 9.936365e-09 	 2.000747e-09 	 -1000.0000 	 -1000.0000 	 -1000.0000 	 -1000.0000 
	 10.8680 	 1.081436e+00 	 143.5107 	  0.6833 	 5.463259e+22 	 3.315766e+20 	 1.028431e-08 	 2.055199e-09 	 -1000.0000 	 -1000.0000 	 -1000.0000 	 -1000.0000 
	 11.0860 	 1.049947e+00 	 143.4460 	  0.6841 	 5.306709e+22 	 3.221480e+20 	 1.071273e-08 	 2.122615e-09 	 -1000.0000 	 -1000.0000 	 -1000.0000 	 -1000.0000 
	 11.6070 	 9.783208e-01 	 143.1816 	  0.6869 	 4.953456e+22 	 3.012965e+20 	 1.204791e-08 	 2.333049e-09 	 -1000.0000 	 -1000.0000 	 -1000.0000 	 -1000.0000 
	 11.8250 	 9.497634e-01 	 142.9992 	  0.6881 	 4.814559e+22 	 2.931646e+20 	 1.272710e-08 	 2.439877e-09 	 -1000.0000 	 -1000.0000 	 -1000.0000 	 -1000.0000 
	 12.0430 	 9.219947e-01 	 142.7776 	  0.6891 	 4.680594e+22 	 2.853184e+20 	 1.345643e-08 	 2.554800e-09 	 -1000.0000 	 -1000.0000 	 -1000.0000 	 -1000.0000 
	 12.2610 	 8.949992e-01 	 142.5358 	  0.6901 	 4.550946e+22 	 2.777156e+20 	 1.420784e-08 	 2.674073e-09 	 -1000.0000 	 -1000.0000 	 -1000.0000 	 -1000.0000 
	 12.4790 	 8.687614e-01 	 142.2930 	  0.6911 	 4.424999e+22 	 2.703136e+20 	 1.495309e-08 	 2.793931e-09 	 -1000.0000 	 -1000.0000 	 -1000.0000 	 -1000.0000 
	 12.9830 	 8.109181e-01 	 141.8330 	  0.6935 	 4.144588e+22 	 2.537366e+20 	 1.649716e-08 	 3.052560e-09 	 -1000.0000 	 -1000.0000 	 -1000.0000 	 -1000.0000 
	 13.2000 	 7.871878e-01 	 141.7217 	  0.6948 	 4.027082e+22 	 2.467339e+20 	 1.702011e-08 	 3.147326e-09 	 -1000.0000 	 -1000.0000 	 -1000.0000 	 -1000.0000 
	 13.4170 	 7.641387e-01 	 141.6624 	  0.6962 	 3.911361e+22 	 2.398119e+20 	 1.744053e-08 	 3.230011e-09 	 -1000.0000 	 -1000.0000 	 -1000.0000 	 -1000.0000 
	 13.6340 	 7.417500e-01 	 141.6316 	  0.6977 	 3.797927e+22 	 2.330212e+20 	 1.776605e-08 	 3.301921e-09 	 -1000.0000 	 -1000.0000 	 -1000.0000 	 -1000.0000 
	 13.8510 	 7.200006e-01 	 141.6055 	  0.6995 	 3.687289e+22 	 2.264129e+20 	 1.800450e-08 	 3.364394e-09 	 -1000.0000 	 -1000.0000 	 -1000.0000 	 -1000.0000 
	 14.3730 	 6.701742e-01 	 141.4189 	  0.7041 	 3.435660e+22 	 2.115712e+20 	 1.826856e-08 	 3.484060e-09 	 -1000.0000 	 -1000.0000 	 -1000.0000 	 -1000.0000 
	 14.5900 	 6.504451e-01 	 141.2329 	  0.7063 	 3.338307e+22 	 2.059622e+20 	 1.826918e-08 	 3.524333e-09 	 -1000.0000 	 -1000.0000 	 -1000.0000 	 -1000.0000 
	 14.8070 	 6.312698e-01 	 140.9792 	  0.7086 	 3.245237e+22 	 2.006847e+20 	 1.821627e-08 	 3.559835e-09 	 -1000.0000 	 -1000.0000 	 -1000.0000 	 -1000.0000 
	 15.0240 	 6.126380e-01 	 140.6819 	  0.7111 	 3.155847e+22 	 1.956774e+20 	 1.811624e-08 	 3.590099e-09 	 -1000.0000 	 -1000.0000 	 -1000.0000 	 -1000.0000 
	 15.2410 	 5.945390e-01 	 140.3651 	  0.7136 	 3.069528e+22 	 1.908786e+20 	 1.797549e-08 	 3.614644e-09 	 -1000.0000 	 -1000.0000 	 -1000.0000 	 -1000.0000 
	 15.7430 	 5.546542e-01 	 139.6918 	  0.7197 	 2.878247e+22 	 1.802351e+20 	 1.752905e-08 	 3.646876e-09 	 -1000.0000 	 -1000.0000 	 -1000.0000 	 -1000.0000 
	 15.9600 	 5.382457e-01 	 139.4822 	  0.7225 	 2.797787e+22 	 1.756896e+20 	 1.730147e-08 	 3.649601e-09 	 -1000.0000 	 -1000.0000 	 -1000.0000 	 -1000.0000 
	 16.1770 	 5.223188e-01 	 139.3294 	  0.7254 	 2.718359e+22 	 1.711506e+20 	 1.709304e-08 	 3.651941e-09 	 -1000.0000 	 -1000.0000 	 -1000.0000 	 -1000.0000 
	 16.3940 	 5.068539e-01 	 139.2162 	  0.7284 	 2.640228e+22 	 1.666525e+20 	 1.695774e-08 	 3.664321e-09 	 -1000.0000 	 -1000.0000 	 -1000.0000 	 -1000.0000 
	 16.6110 	 4.918314e-01 	 139.1248 	  0.7316 	 2.563663e+22 	 1.622298e+20 	 1.694987e-08 	 3.697233e-09 	 -1000.0000 	 -1000.0000 	 -1000.0000 	 -1000.0000 
	 17.1280 	 4.577077e-01 	 138.8904 	  0.7403 	 2.389150e+22 	 1.522014e+20 	 1.776399e-08 	 3.920141e-09 	 -1000.0000 	 -1000.0000 	 -1000.0000 	 -1000.0000 
	 17.3440 	 4.440995e-01 	 138.7441 	  0.7446 	 2.320169e+22 	 1.483044e+20 	 1.857813e-08 	 4.098063e-09 	 -1000.0000 	 -1000.0000 	 -1000.0000 	 -1000.0000 
	 17.5610 	 4.307973e-01 	 138.5686 	  0.7490 	 2.253208e+22 	 1.445540e+20 	 1.966895e-08 	 4.326173e-09 	 -1000.0000 	 -1000.0000 	 -1000.0000 	 -1000.0000 
	 17.7770 	 4.179239e-01 	 138.3879 	  0.7534 	 2.188563e+22 	 1.409276e+20 	 2.094592e-08 	 4.587827e-09 	 -1000.0000 	 -1000.0000 	 -1000.0000 	 -1000.0000 
	 17.9940 	 4.053604e-01 	 138.2232 	  0.7574 	 2.125307e+22 	 1.373333e+20 	 2.233903e-08 	 4.870665e-09 	 -1000.0000 	 -1000.0000 	 -1000.0000 	 -1000.0000 
	 18.5030 	 3.773459e-01 	 138.0324 	  0.7639 	 1.981703e+22 	 1.287637e+20 	 2.557394e-08 	 5.528379e-09 	 -1000.0000 	 -1000.0000 	 -1000.0000 	 -1000.0000 
	 18.7190 	 3.660744e-01 	 138.0876 	  0.7648 	 1.922017e+22 	 1.249343e+20 	 2.673975e-08 	 5.770219e-09 	 -1000.0000 	 -1000.0000 	 -1000.0000 	 -1000.0000 
	 18.9350 	 3.551636e-01 	 138.2341 	  0.7648 	 1.862946e+22 	 1.209918e+20 	 2.772404e-08 	 5.979860e-09 	 -1000.0000 	 -1000.0000 	 -1000.0000 	 -1000.0000 
	 19.1510 	 3.446028e-01 	 138.4595 	  0.7646 	 1.804688e+22 	 1.170102e+20 	 2.853760e-08 	 6.160060e-09 	 -1000.0000 	 -1000.0000 	 -1000.0000 	 -1000.0000 
	 19.3670 	 3.343814e-01 	 138.7512 	  0.7648 	 1.747443e+22 	 1.130645e+20 	 2.919179e-08 	 6.313687e-09 	 -1000.0000 	 -1000.0000 	 -1000.0000 	 -1000.0000 
	 19.8680 	 3.119201e-01 	 139.6135 	  0.7709 	 1.619686e+22 	 1.044666e+20 	 3.015866e-08 	 6.583608e-09 	 -1000.0000 	 -1000.0000 	 -1000.0000 	 -1000.0000 
	 20.0830 	 3.027899e-01 	 140.0337 	  0.7775 	 1.567476e+22 	 1.011868e+20 	 3.037601e-08 	 6.670440e-09 	 -1000.0000 	 -1000.0000 	 -1000.0000 	 -1000.0000 
	 20.2990 	 2.939110e-01 	 140.4741 	  0.7867 	 1.516744e+22 	 9.817542e+19 	 3.064163e-08 	 6.760414e-09 	 -1000.0000 	 -1000.0000 	 -1000.0000 	 -1000.0000 
	 20.5140 	 2.853576e-01 	 140.9273 	  0.7979 	 1.467924e+22 	 9.542435e+19 	 3.119589e-08 	 6.880422e-09 	 -1000.0000 	 -1000.0000 	 -1000.0000 	 -1000.0000 
	 20.7290 	 2.770798e-01 	 141.3921 	  0.8106 	 1.420743e+22 	 9.288235e+19 	 3.228308e-08 	 7.058626e-09 	 -1000.0000 	 -1000.0000 	 -1000.0000 	 -1000.0000 
	 22.5830 	 2.159344e-01 	 145.4078 	  0.9069 	 1.076604e+22 	 7.425068e+19 	 9.952508e-08 	 1.509062e-08 	 -1000.0000 	 -1000.0000 	 -1000.0000 	 -1000.0000 
	 22.7980 	 2.098920e-01 	 145.8206 	  0.9076 	 1.043358e+22 	 7.185118e+19 	 1.181827e-07 	 1.724461e-08 	 -1000.0000 	 -1000.0000 	 -1000.0000 	 -1000.0000 
	 23.0130 	 2.040390e-01 	 146.2267 	  0.9053 	 1.011296e+22 	 6.933058e+19 	 1.399997e-07 	 1.969850e-08 	 -1000.0000 	 -1000.0000 	 -1000.0000 	 -1000.0000 
	 23.2270 	 1.983934e-01 	 146.6441 	  0.9008 	 9.804163e+21 	 6.675204e+19 	 1.651544e-07 	 2.238808e-08 	 -1000.0000 	 -1000.0000 	 -1000.0000 	 -1000.0000 
	 23.4420 	 1.928948e-01 	 147.0973 	  0.8953 	 9.502844e+21 	 6.414285e+19 	 1.941855e-07 	 2.528702e-08 	 -1000.0000 	 -1000.0000 	 -1000.0000 	 -1000.0000 
	 23.9530 	 1.804775e-01 	 148.4291 	  0.8834 	 8.814031e+21 	 5.816836e+19 	 2.800861e-07 	 3.266649e-08 	 -1000.0000 	 -1000.0000 	 -1000.0000 	 -1000.0000 
	 24.1680 	 1.755083e-01 	 149.1442 	  0.8812 	 8.532276e+21 	 5.587415e+19 	 3.239731e-07 	 3.584994e-08 	 -1000.0000 	 -1000.0000 	 -1000.0000 	 -1000.0000 
	 24.3830 	 1.706842e-01 	 149.9466 	  0.8813 	 8.255162e+21 	 5.374587e+19 	 3.713611e-07 	 3.900322e-08 	 -1000.0000 	 -1000.0000 	 -1000.0000 	 -1000.0000 
	 24.5970 	 1.660270e-01 	 150.7994 	  0.8832 	 7.985563e+21 	 5.178304e+19 	 4.199590e-07 	 4.205860e-08 	 -1000.0000 	 -1000.0000 	 -1000.0000 	 -1000.0000 
	 24.8120 	 1.614937e-01 	 151.6777 	  0.8867 	 7.722603e+21 	 4.995769e+19 	 4.681504e-07 	 4.499109e-08 	 -1000.0000 	 -1000.0000 	 -1000.0000 	 -1000.0000 
	 25.3190 	 1.513838e-01 	 153.6451 	  0.8990 	 7.143341e+21 	 4.617964e+19 	 5.673346e-07 	 5.105307e-08 	 -1000.0000 	 -1000.0000 	 -1000.0000 	 -1000.0000 
	 25.5330 	 1.473616e-01 	 154.3546 	  0.9050 	 6.919884e+21 	 4.478311e+19 	 5.982416e-07 	 5.312641e-08 	 -1000.0000 	 -1000.0000 	 -1000.0000 	 -1000.0000 
	 25.7470 	 1.434790e-01 	 154.9797 	  0.9112 	 6.709158e+21 	 4.348640e+19 	 6.218727e-07 	 5.489225e-08 	 -1000.0000 	 -1000.0000 	 -1000.0000 	 -1000.0000 
	 25.9600 	 1.397435e-01 	 155.5395 	  0.9176 	 6.510411e+21 	 4.227949e+19 	 6.395198e-07 	 5.638029e-08 	 -1000.0000 	 -1000.0000 	 -1000.0000 	 -1000.0000 
	 26.1740 	 1.361103e-01 	 156.0607 	  0.9242 	 6.320105e+21 	 4.113553e+19 	 6.527270e-07 	 5.764103e-08 	 -1000.0000 	 -1000.0000 	 -1000.0000 	 -1000.0000 
	 26.6740 	 1.280346e-01 	 157.2393 	  0.9405 	 5.902627e+21 	 3.864316e+19 	 6.737051e-07 	 5.987765e-08 	 -1000.0000 	 -1000.0000 	 -1000.0000 	 -1000.0000 
	 26.8870 	 1.247472e-01 	 157.7753 	  0.9478 	 5.732416e+21 	 3.762158e+19 	 6.816701e-07 	 6.061470e-08 	 -1000.0000 	 -1000.0000 	 -1000.0000 	 -1000.0000 
	 27.1000 	 1.215444e-01 	 158.3436 	  0.9550 	 5.565705e+21 	 3.661084e+19 	 6.899629e-07 	 6.125057e-08 	 -1000.0000 	 -1000.0000 	 -1000.0000 	 -1000.0000 
	 27.3140 	 1.184131e-01 	 158.9393 	  0.9621 	 5.402149e+21 	 3.560497e+19 	 6.983352e-07 	 6.178554e-08 	 -1000.0000 	 -1000.0000 	 -1000.0000 	 -1000.0000 
	 27.5270 	 1.153841e-01 	 159.5490 	  0.9686 	 5.243701e+21 	 3.461213e+19 	 7.064103e-07 	 6.221240e-08 	 -1000.0000 	 -1000.0000 	 -1000.0000 	 -1000.0000 
	 28.0340 	 1.085347e-01 	 161.0210 	  0.9802 	 4.886478e+21 	 3.227519e+19 	 7.228468e-07 	 6.279162e-08 	 -1000.0000 	 -1000.0000 	 -1000.0000 	 -1000.0000 
	 28.2470 	 1.058118e-01 	 161.6285 	  0.9828 	 4.745786e+21 	 3.130201e+19 	 7.278600e-07 	 6.284791e-08 	 -1000.0000 	 -1000.0000 	 -1000.0000 	 -1000.0000 
	 28.4600 	 1.031775e-01 	 162.2166 	  0.9841 	 4.610844e+21 	 3.033956e+19 	 7.314703e-07 	 6.281507e-08 	 -1000.0000 	 -1000.0000 	 -1000.0000 	 -1000.0000 
	 28.6740 	 1.006133e-01 	 162.7777 	  0.9847 	 4.480832e+21 	 2.939375e+19 	 7.336197e-07 	 6.272869e-08 	 -1000.0000 	 -1000.0000 	 -1000.0000 	 -1000.0000 
	 28.8870 	 9.813641e-02 	 163.2965 	  0.9848 	 4.356736e+21 	 2.848375e+19 	 7.342246e-07 	 6.262599e-08 	 -1000.0000 	 -1000.0000 	 -1000.0000 	 -1000.0000 
	 29.3890 	 9.255841e-02 	 164.3044 	  0.9864 	 4.083891e+21 	 2.652235e+19 	 7.292315e-07 	 6.252657e-08 	 -1000.0000 	 -1000.0000 	 -1000.0000 	 -1000.0000 
	 29.6020 	 9.028592e-02 	 164.6174 	  0.9887 	 3.975886e+21 	 2.579181e+19 	 7.242700e-07 	 6.262849e-08 	 -1000.0000 	 -1000.0000 	 -1000.0000 	 -1000.0000 
	 29.8140 	 8.807488e-02 	 164.8620 	  0.9919 	 3.872573e+21 	 2.512407e+19 	 7.180033e-07 	 6.280477e-08 	 -1000.0000 	 -1000.0000 	 -1000.0000 	 -1000.0000 
	 30.0270 	 8.590495e-02 	 165.0543 	  0.9956 	 3.772629e+21 	 2.449878e+19 	 7.109996e-07 	 6.299587e-08 	 -1000.0000 	 -1000.0000 	 -1000.0000 	 -1000.0000 
	 30.2400 	 8.378722e-02 	 165.2069 	  0.9991 	 3.676199e+21 	 2.390498e+19 	 7.039201e-07 	 6.313904e-08 	 -1000.0000 	 -1000.0000 	 -1000.0000 	 -1000.0000 
	 30.7440 	 7.898736e-02 	 165.4917 	  1.0041 	 3.459991e+21 	 2.254268e+19 	 6.905417e-07 	 6.292722e-08 	 -1000.0000 	 -1000.0000 	 -1000.0000 	 -1000.0000 
	 30.9560 	 7.705825e-02 	 165.6125 	  1.0035 	 3.373236e+21 	 2.195429e+19 	 6.878179e-07 	 6.246425e-08 	 -1000.0000 	 -1000.0000 	 -1000.0000 	 -1000.0000 
	 31.1680 	 7.518145e-02 	 165.7408 	  1.0014 	 3.288695e+21 	 2.135370e+19 	 6.869973e-07 	 6.179954e-08 	 -1000.0000 	 -1000.0000 	 -1000.0000 	 -1000.0000 
	 31.3800 	 7.335486e-02 	 165.8698 	  0.9987 	 3.206388e+21 	 2.075378e+19 	 6.875780e-07 	 6.104044e-08 	 -1000.0000 	 -1000.0000 	 -1000.0000 	 -1000.0000 
	 31.5920 	 7.157634e-02 	 165.9926 	  0.9963 	 3.126339e+21 	 2.016757e+19 	 6.890509e-07 	 6.029534e-08 	 -1000.0000 	 -1000.0000 	 -1000.0000 	 -1000.0000 
	 32.1000 	 6.749758e-02 	 166.2207 	  0.9965 	 2.943851e+21 	 1.889640e+19 	 6.931754e-07 	 5.921330e-08 	 -1000.0000 	 -1000.0000 	 -1000.0000 	 -1000.0000 
	 32.3110 	 6.587415e-02 	 166.2715 	  1.0013 	 2.871974e+21 	 1.845491e+19 	 6.939058e-07 	 5.931457e-08 	 -1000.0000 	 -1000.0000 	 -1000.0000 	 -1000.0000 
	 32.5220 	 6.428986e-02 	 166.2928 	  1.0090 	 2.802350e+21 	 1.806872e+19 	 6.936860e-07 	 5.978083e-08 	 -1000.0000 	 -1000.0000 	 -1000.0000 	 -1000.0000 
	 32.7330 	 6.274370e-02 	 166.2871 	  1.0190 	 2.734874e+21 	 1.772857e+19 	 6.925748e-07 	 6.054145e-08 	 -1000.0000 	 -1000.0000 	 -1000.0000 	 -1000.0000 
	 32.9450 	 6.122763e-02 	 166.2570 	  1.0306 	 2.669138e+21 	 1.742371e+19 	 6.906232e-07 	 6.152974e-08 	 -1000.0000 	 -1000.0000 	 -1000.0000 	 -1000.0000 
	 34.7800 	 4.952297e-02 	 165.3899 	  1.0967 	 2.170692e+21 	 1.491762e+19 	 6.481154e-07 	 6.867363e-08 	 -1000.0000 	 -1000.0000 	 -1000.0000 	 -1000.0000 
	 34.9910 	 4.832299e-02 	 165.2682 	  1.0886 	 2.119684e+21 	 1.448365e+19 	 6.413644e-07 	 6.810317e-08 	 -1000.0000 	 -1000.0000 	 -1000.0000 	 -1000.0000 
	 35.2020 	 4.715024e-02 	 165.1552 	  1.0763 	 2.069637e+21 	 1.400410e+19 	 6.345176e-07 	 6.713650e-08 	 -1000.0000 	 -1000.0000 	 -1000.0000 	 -1000.0000 
	 35.4130 	 4.600471e-02 	 165.0591 	  1.0612 	 2.020495e+21 	 1.349653e+19 	 6.277371e-07 	 6.592144e-08 	 -1000.0000 	 -1000.0000 	 -1000.0000 	 -1000.0000 
	 35.6250 	 4.488119e-02 	 164.9877 	  1.0448 	 1.971977e+21 	 1.297616e+19 	 6.211551e-07 	 6.460094e-08 	 -1000.0000 	 -1000.0000 	 -1000.0000 	 -1000.0000 
	 36.1250 	 4.234034e-02 	 164.9661 	  1.0097 	 1.860625e+21 	 1.181081e+19 	 6.074954e-07 	 6.196038e-08 	 -1000.0000 	 -1000.0000 	 -1000.0000 	 -1000.0000 
	 36.3350 	 4.131879e-02 	 165.0371 	  1.0000 	 1.815020e+21 	 1.138921e+19 	 6.029149e-07 	 6.140138e-08 	 -1000.0000 	 -1000.0000 	 -1000.0000 	 -1000.0000 
	 36.5460 	 4.031896e-02 	 165.1532 	  0.9939 	 1.769923e+21 	 1.101512e+19 	 5.989652e-07 	 6.122314e-08 	 -1000.0000 	 -1000.0000 	 -1000.0000 	 -1000.0000 
	 36.7570 	 3.934485e-02 	 165.2993 	  0.9907 	 1.725672e+21 	 1.068267e+19 	 5.954101e-07 	 6.132912e-08 	 -1000.0000 	 -1000.0000 	 -1000.0000 	 -1000.0000 
	 36.9670 	 3.839995e-02 	 165.4598 	  0.9895 	 1.682590e+21 	 1.038500e+19 	 5.920033e-07 	 6.161585e-08 	 -1000.0000 	 -1000.0000 	 -1000.0000 	 -1000.0000 
	 37.4600 	 3.627289e-02 	 165.8119 	  0.9897 	 1.585890e+21 	 9.770389e+18 	 5.830443e-07 	 6.242723e-08 	 -1000.0000 	 -1000.0000 	 -1000.0000 	 -1000.0000 
	 37.6700 	 3.540347e-02 	 165.9160 	  0.9892 	 1.546872e+21 	 9.525358e+18 	 5.782151e-07 	 6.259530e-08 	 -1000.0000 	 -1000.0000 	 -1000.0000 	 -1000.0000 
	 37.8800 	 3.455485e-02 	 165.9763 	  0.9877 	 1.509244e+21 	 9.284995e+18 	 5.727243e-07 	 6.260381e-08 	 -1000.0000 	 -1000.0000 	 -1000.0000 	 -1000.0000 
	 38.0900 	 3.372653e-02 	 165.9854 	  0.9855 	 1.472998e+21 	 9.051027e+18 	 5.668053e-07 	 6.249448e-08 	 -1000.0000 	 -1000.0000 	 -1000.0000 	 -1000.0000 
	 38.3000 	 3.291799e-02 	 165.9364 	  0.9829 	 1.438128e+21 	 8.825242e+18 	 5.606947e-07 	 6.230991e-08 	 -1000.0000 	 -1000.0000 	 -1000.0000 	 -1000.0000 
	 38.8050 	 3.105157e-02 	 165.5368 	  0.9758 	 1.359860e+21 	 8.326545e+18 	 5.466371e-07 	 6.181413e-08 	 -1000.0000 	 -1000.0000 	 -1000.0000 	 -1000.0000 
	 39.0150 	 3.030655e-02 	 165.2368 	  0.9731 	 1.329611e+21 	 8.141866e+18 	 5.416324e-07 	 6.169039e-08 	 -1000.0000 	 -1000.0000 	 -1000.0000 	 -1000.0000 
	 39.2240 	 2.958235e-02 	 164.8646 	  0.9708 	 1.300732e+21 	 7.971622e+18 	 5.372915e-07 	 6.164536e-08 	 -1000.0000 	 -1000.0000 	 -1000.0000 	 -1000.0000 
	 39.4330 	 2.887463e-02 	 164.4344 	  0.9689 	 1.272913e+21 	 7.813145e+18 	 5.335224e-07 	 6.167113e-08 	 -1000.0000 	 -1000.0000 	 -1000.0000 	 -1000.0000 
	 39.6430 	 2.817939e-02 	 163.9599 	  0.9674 	 1.245860e+21 	 7.663972e+18 	 5.302422e-07 	 6.176082e-08 	 -1000.0000 	 -1000.0000 	 -1000.0000 	 -1000.0000 
	 40.1450 	 2.657753e-02 	 162.7485 	  0.9661 	 1.183853e+21 	 7.337583e+18 	 5.240498e-07 	 6.218969e-08 	 -1000.0000 	 -1000.0000 	 -1000.0000 	 -1000.0000 
	 40.3550 	 2.593077e-02 	 162.2488 	  0.9667 	 1.158618e+21 	 7.209158e+18 	 5.219759e-07 	 6.243929e-08 	 -1000.0000 	 -1000.0000 	 -1000.0000 	 -1000.0000 
	 40.5640 	 2.530018e-02 	 161.7718 	  0.9675 	 1.133774e+21 	 7.082739e+18 	 5.200982e-07 	 6.270759e-08 	 -1000.0000 	 -1000.0000 	 -1000.0000 	 -1000.0000 
	 40.7730 	 2.468269e-02 	 161.3200 	  0.9681 	 1.109190e+21 	 6.954793e+18 	 5.183142e-07 	 6.297247e-08 	 -1000.0000 	 -1000.0000 	 -1000.0000 	 -1000.0000 
