	 height_(km) 	 press_(mbar) 	 temp_(K) 	 temperr_(K) 	 numdens_(m-3) 	 numdenserr_(m-3) 	 H2Ovmr_() 	 H2Ovmrerr_() 	 D/H_(VSMOW) 	 D/Herr_(VSMOW) 	 18O/16O_(VSMOW) 	 18O/16Oerr_(VSMOW) 
	  5.2320 	 2.687117e+00 	 196.3941 	  5.1662 	 9.918206e+22 	 2.642194e+21 	 1.076996e-04 	 5.922871e-06 	  5.1560 	  0.8505 	  0.8417 	  0.1516 
	  5.4680 	 2.625256e+00 	 196.2423 	  5.0160 	 9.698447e+22 	 2.510548e+21 	 1.029929e-04 	 5.980710e-06 	  5.3513 	  0.8537 	  0.8791 	  0.1557 
	  5.7040 	 2.564481e+00 	 196.0249 	  4.8614 	 9.484823e+22 	 2.382438e+21 	 9.918267e-05 	 5.971392e-06 	  5.4987 	  0.8452 	  0.9102 	  0.1620 
	  5.9400 	 2.504818e+00 	 195.7521 	  4.7031 	 9.277024e+22 	 2.257880e+21 	 9.631309e-05 	 5.902061e-06 	  5.6002 	  0.8244 	  0.9349 	  0.1639 
	  6.1760 	 2.446293e+00 	 195.4339 	  4.5419 	 9.074738e+22 	 2.136893e+21 	 9.440280e-05 	 5.779151e-06 	  5.6589 	  0.7922 	  0.9532 	  0.1618 
	  6.3520 	 2.403402e+00 	 195.1729 	  4.4202 	 8.927285e+22 	 2.048999e+21 	 9.360371e-05 	 5.656023e-06 	  5.6770 	  0.7618 	  0.9630 	  0.1581 
	  6.5880 	 2.346923e+00 	 194.7993 	  4.2554 	 8.733879e+22 	 1.934283e+21 	 9.335953e-05 	 5.452788e-06 	  5.6706 	  0.7143 	  0.9711 	  0.1507 
	  6.8240 	 2.291652e+00 	 194.4076 	  4.0897 	 8.545135e+22 	 1.823184e+21 	 9.403261e-05 	 5.210235e-06 	  5.6335 	  0.6619 	  0.9740 	  0.1417 
	  7.0600 	 2.237613e+00 	 194.0080 	  3.9235 	 8.360739e+22 	 1.715719e+21 	 9.556480e-05 	 4.933701e-06 	  5.5709 	  0.6076 	  0.9723 	  0.1320 
	  7.2960 	 2.184831e+00 	 193.6103 	  3.7576 	 8.180383e+22 	 1.611903e+21 	 9.786396e-05 	 4.631265e-06 	  5.4887 	  0.5545 	  0.9669 	  0.1227 
	  7.4820 	 2.144136e+00 	 193.3047 	  3.6276 	 8.040880e+22 	 1.532665e+21 	 9.998547e-05 	 4.514700e-06 	  5.4138 	  0.5260 	  0.9605 	  0.1179 
	  7.7180 	 2.093665e+00 	 192.9348 	  3.4639 	 7.866984e+22 	 1.435382e+21 	 1.033785e-04 	 4.475126e-06 	  5.3110 	  0.4992 	  0.9505 	  0.1142 
	  7.9540 	 2.044450e+00 	 192.5786 	  3.2993 	 7.696579e+22 	 1.340896e+21 	 1.075961e-04 	 4.456914e-06 	  5.2047 	  0.4742 	  0.9399 	  0.1117 
	  8.1900 	 1.996380e+00 	 192.2157 	  3.1285 	 7.529954e+22 	 1.247533e+21 	 1.122880e-04 	 4.449931e-06 	  5.1009 	  0.4513 	  0.9302 	  0.1100 
	  8.4260 	 1.949341e+00 	 191.8251 	  2.9460 	 7.367409e+22 	 1.153582e+21 	 1.170314e-04 	 4.441866e-06 	  5.0044 	  0.4307 	  0.9226 	  0.1083 
	  8.6020 	 1.914864e+00 	 191.5033 	  2.7991 	 7.249024e+22 	 1.082115e+21 	 1.203044e-04 	 4.427101e-06 	  4.9392 	  0.4170 	  0.9188 	  0.1068 
	  8.8380 	 1.869356e+00 	 191.0157 	  2.5838 	 7.094284e+22 	 9.831545e+20 	 1.238516e-04 	 4.383285e-06 	  4.8607 	  0.4009 	  0.9167 	  0.1035 
	  9.0740 	 1.824660e+00 	 190.4848 	  2.3510 	 6.943434e+22 	 8.818275e+20 	 1.260915e-04 	 4.350382e-06 	  4.7890 	  0.3912 	  0.9184 	  0.1002 
	  9.3100 	 1.780841e+00 	 189.9687 	  2.1124 	 6.794866e+22 	 7.819086e+20 	 1.263731e-04 	 4.301553e-06 	  4.7195 	  0.3871 	  0.9247 	  0.0981 
	  9.5460 	 1.737969e+00 	 189.5271 	  1.8801 	 6.646927e+22 	 6.872899e+20 	 1.233365e-04 	 4.091824e-06 	  4.6482 	  0.3765 	  0.9365 	  0.0956 
	  9.7270 	 1.705772e+00 	 189.2762 	  1.7136 	 6.532861e+22 	 6.207454e+20 	 1.186209e-04 	 3.856628e-06 	  4.5896 	  0.3662 	  0.9491 	  0.0941 
	  9.9630 	 1.664736e+00 	 189.1096 	  1.5213 	 6.382077e+22 	 5.448912e+20 	 1.101012e-04 	 3.600968e-06 	  4.5057 	  0.3629 	  0.9694 	  0.0968 
	 10.1980 	 1.624937e+00 	 189.1170 	  1.3615 	 6.229913e+22 	 4.824960e+20 	 9.944249e-05 	 3.399951e-06 	  4.4138 	  0.3723 	  0.9925 	  0.1040 
	 10.4330 	 1.586144e+00 	 189.2347 	  1.2312 	 6.077649e+22 	 4.317633e+20 	 8.715930e-05 	 3.162079e-06 	  4.3166 	  0.3844 	  1.0150 	  0.1115 
	 10.6690 	 1.548143e+00 	 189.3982 	  1.1275 	 5.926638e+22 	 3.909812e+20 	 7.438290e-05 	 2.861313e-06 	  4.2169 	  0.3861 	  1.0354 	  0.1151 
	 10.8570 	 1.518517e+00 	 189.5170 	  1.0626 	 5.809044e+22 	 3.647331e+20 	 6.505024e-05 	 2.595568e-06 	  4.1387 	  0.3754 	  1.0495 	  0.1131 
	 11.0930 	 1.482093e+00 	 189.5981 	  1.0015 	 5.666455e+22 	 3.383067e+20 	 5.575999e-05 	 2.231734e-06 	  4.0450 	  0.3468 	  1.0645 	  0.1036 
	 11.3280 	 1.446637e+00 	 189.5801 	  0.9602 	 5.530671e+22 	 3.180401e+20 	 4.937668e-05 	 1.972722e-06 	  3.9593 	  0.3304 	  1.0775 	  0.0942 
	 11.5630 	 1.411978e+00 	 189.4722 	  0.9349 	 5.400667e+22 	 3.028215e+20 	 4.490452e-05 	 1.873003e-06 	  3.8819 	  0.3313 	  1.0911 	  0.0943 
	 11.7990 	 1.377958e+00 	 189.2835 	  0.9219 	 5.275464e+22 	 2.916372e+20 	 4.191262e-05 	 1.810354e-06 	  3.8121 	  0.3340 	  1.1056 	  0.0969 
	 13.0780 	 1.206678e+00 	 187.2982 	  0.9162 	 4.670287e+22 	 2.600877e+20 	 3.835156e-05 	 1.759803e-06 	  3.5261 	  0.3555 	  1.1816 	  0.1124 
	 13.3120 	 1.177616e+00 	 186.8391 	  0.8989 	 4.569333e+22 	 2.519274e+20 	 3.773903e-05 	 1.724032e-06 	  3.4877 	  0.3561 	  1.1935 	  0.1139 
	 13.5460 	 1.149218e+00 	 186.3679 	  0.8721 	 4.470543e+22 	 2.416956e+20 	 3.657130e-05 	 1.659596e-06 	  3.4522 	  0.3547 	  1.2039 	  0.1146 
	 13.7800 	 1.121463e+00 	 185.8810 	  0.8406 	 4.373977e+22 	 2.304476e+20 	 3.495397e-05 	 1.573240e-06 	  3.4174 	  0.3766 	  1.2112 	  0.1144 
	 14.0140 	 1.094329e+00 	 185.3746 	  0.8090 	 4.279708e+22 	 2.192814e+20 	 3.303902e-05 	 1.474428e-06 	  3.3801 	  0.4081 	  1.2147 	  0.1134 
	 14.1980 	 1.073415e+00 	 184.9600 	  0.7872 	 4.207242e+22 	 2.112748e+20 	 3.147810e-05 	 1.402528e-06 	  3.3468 	  0.4312 	  1.2145 	  0.1125 
	 14.4320 	 1.047337e+00 	 184.4088 	  0.7674 	 4.117250e+22 	 2.029539e+20 	 2.948360e-05 	 1.303963e-06 	  3.2971 	  0.4546 	  1.2105 	  0.1104 
	 14.6660 	 1.021818e+00 	 183.8271 	  0.7574 	 4.029666e+22 	 1.969418e+20 	 2.770108e-05 	 1.226544e-06 	  3.2400 	  0.4744 	  1.2028 	  0.1086 
	 14.9000 	 9.968306e-01 	 183.2111 	  0.7554 	 3.944395e+22 	 1.927714e+20 	 2.615102e-05 	 1.163094e-06 	  3.1772 	  0.4898 	  1.1930 	  0.1070 
	 15.1340 	 9.723494e-01 	 182.5568 	  0.7594 	 3.861338e+22 	 1.899425e+20 	 2.486780e-05 	 1.112664e-06 	  3.1106 	  0.5009 	  1.1814 	  0.1057 
	 15.3230 	 9.529275e-01 	 181.9977 	  0.7657 	 3.795801e+22 	 1.882951e+20 	 2.403179e-05 	 1.079738e-06 	  3.0556 	  0.5092 	  1.1712 	  0.1049 
	 15.5570 	 9.292954e-01 	 181.2655 	  0.7757 	 3.716483e+22 	 1.866261e+20 	 2.322265e-05 	 1.044981e-06 	  2.9895 	  0.5199 	  1.1582 	  0.1039 
	 15.7900 	 9.062217e-01 	 180.5133 	  0.7862 	 3.639129e+22 	 1.850133e+20 	 2.260209e-05 	 1.013458e-06 	  2.9288 	  0.5308 	  1.1456 	  0.1030 
	 16.0230 	 8.836306e-01 	 179.7824 	  0.7958 	 3.562741e+22 	 1.831633e+20 	 2.207435e-05 	 9.823293e-07 	  2.8760 	  0.5421 	  1.1344 	  0.1022 
	 16.2570 	 8.614559e-01 	 179.1154 	  0.8028 	 3.486325e+22 	 1.807829e+20 	 2.155097e-05 	 9.493981e-07 	  2.8333 	  0.5540 	  1.1252 	  0.1015 
	 16.4330 	 8.451332e-01 	 178.6857 	  0.8054 	 3.428638e+22 	 1.784755e+20 	 2.111444e-05 	 9.228476e-07 	  2.8092 	  0.5634 	  1.1199 	  0.1011 
	 16.6670 	 8.239253e-01 	 178.2446 	  0.8041 	 3.351152e+22 	 1.745062e+20 	 2.043009e-05 	 8.851792e-07 	  2.7879 	  0.5767 	  1.1153 	  0.1009 
	 16.9000 	 8.033611e-01 	 177.9408 	  0.7976 	 3.273337e+22 	 1.696242e+20 	 1.962834e-05 	 8.454423e-07 	  2.7787 	  0.5920 	  1.1134 	  0.1010 
	 17.1330 	 7.833126e-01 	 177.7106 	  0.7881 	 3.195860e+22 	 1.642251e+20 	 1.874613e-05 	 8.042137e-07 	  2.7804 	  0.6101 	  1.1137 	  0.1014 
	 17.3670 	 7.636592e-01 	 177.4899 	  0.7774 	 3.119430e+22 	 1.587105e+20 	 1.781982e-05 	 7.619845e-07 	  2.7919 	  0.6321 	  1.1160 	  0.1021 
	 17.5590 	 7.478668e-01 	 177.2714 	  0.7694 	 3.058486e+22 	 1.544183e+20 	 1.705628e-05 	 7.271658e-07 	  2.8073 	  0.6535 	  1.1189 	  0.1028 
	 17.7910 	 7.291542e-01 	 176.9102 	  0.7621 	 2.987820e+22 	 1.498615e+20 	 1.615469e-05 	 6.852877e-07 	  2.8308 	  0.6832 	  1.1229 	  0.1039 
	 18.0240 	 7.107498e-01 	 176.4201 	  0.7582 	 2.920383e+22 	 1.460812e+20 	 1.527275e-05 	 6.438864e-07 	  2.8572 	  0.7164 	  1.1267 	  0.1053 
	 18.2570 	 6.927302e-01 	 175.8165 	  0.7567 	 2.856117e+22 	 1.429404e+20 	 1.439525e-05 	 6.035764e-07 	  2.8843 	  0.7518 	  1.1303 	  0.1069 
	 18.4890 	 6.751666e-01 	 175.1185 	  0.7571 	 2.794880e+22 	 1.402787e+20 	 1.350937e-05 	 5.649081e-07 	  2.9101 	  0.7876 	  1.1336 	  0.1089 
	 18.6690 	 6.617972e-01 	 174.5201 	  0.7580 	 2.749008e+22 	 1.384257e+20 	 1.280547e-05 	 5.360846e-07 	  2.9284 	  0.8145 	  1.1360 	  0.1108 
	 18.9010 	 6.448945e-01 	 173.6888 	  0.7595 	 2.691672e+22 	 1.361753e+20 	 1.187072e-05 	 5.005933e-07 	  2.9510 	  0.8470 	  1.1396 	  0.1136 
	 19.1340 	 6.282870e-01 	 172.8072 	  0.7610 	 2.635729e+22 	 1.339869e+20 	 1.091642e-05 	 4.669558e-07 	  2.9750 	  0.8787 	  1.1445 	  0.1169 
	 19.3670 	 6.120420e-01 	 171.9079 	  0.7626 	 2.580995e+22 	 1.318435e+20 	 9.902684e-06 	 4.678774e-07 	  3.0036 	  0.9163 	  1.1505 	  0.1242 
	 19.5990 	 5.962209e-01 	 171.0243 	  0.7643 	 2.527264e+22 	 1.297304e+20 	 8.940338e-06 	 4.641282e-07 	  3.0410 	  0.9604 	  1.1585 	  0.1323 
	 19.7890 	 5.835228e-01 	 170.3297 	  0.7658 	 2.483531e+22 	 1.279992e+20 	 8.236967e-06 	 4.494910e-07 	  3.0809 	  1.0008 	  1.1675 	  0.1381 
	 20.0210 	 5.683287e-01 	 169.5416 	  0.7680 	 2.430101e+22 	 1.258643e+20 	 7.501648e-06 	 4.223769e-07 	  3.1426 	  1.0550 	  1.1820 	  0.1438 
	 20.2540 	 5.534069e-01 	 168.8314 	  0.7703 	 2.376225e+22 	 1.236702e+20 	 6.896032e-06 	 3.896166e-07 	 -1000.0000 	 -1000.0000 	 -1000.0000 	 -1000.0000 
	 20.4870 	 5.388163e-01 	 168.2073 	  0.7726 	 2.322136e+22 	 1.213942e+20 	 6.400722e-06 	 3.558504e-07 	 -1000.0000 	 -1000.0000 	 -1000.0000 	 -1000.0000 
	 20.7190 	 5.246103e-01 	 167.6755 	  0.7745 	 2.268084e+22 	 1.190143e+20 	 5.996657e-06 	 3.249954e-07 	 -1000.0000 	 -1000.0000 	 -1000.0000 	 -1000.0000 
	 20.8940 	 5.141029e-01 	 167.3359 	  0.7756 	 2.227191e+22 	 1.171248e+20 	 5.742161e-06 	 3.044280e-07 	 -1000.0000 	 -1000.0000 	 -1000.0000 	 -1000.0000 
	 21.1260 	 5.004437e-01 	 166.9699 	  0.7762 	 2.172838e+22 	 1.144710e+20 	 5.465726e-06 	 2.782891e-07 	 -1000.0000 	 -1000.0000 	 -1000.0000 	 -1000.0000 
	 21.3580 	 4.870967e-01 	 166.6852 	  0.7760 	 2.118575e+22 	 1.116680e+20 	 5.217678e-06 	 2.673762e-07 	 -1000.0000 	 -1000.0000 	 -1000.0000 	 -1000.0000 
	 21.5900 	 4.740740e-01 	 166.4498 	  0.7751 	 2.064879e+22 	 1.087819e+20 	 5.010904e-06 	 2.589927e-07 	 -1000.0000 	 -1000.0000 	 -1000.0000 	 -1000.0000 
	 21.8220 	 4.613887e-01 	 166.2310 	  0.7736 	 2.012238e+22 	 1.058808e+20 	 4.835208e-06 	 2.518409e-07 	 -1000.0000 	 -1000.0000 	 -1000.0000 	 -1000.0000 
	 22.0140 	 4.511546e-01 	 166.0391 	  0.7721 	 1.969820e+22 	 1.035172e+20 	 4.704958e-06 	 2.464926e-07 	 -1000.0000 	 -1000.0000 	 -1000.0000 	 -1000.0000 
	 22.2460 	 4.391177e-01 	 165.7668 	  0.7700 	 1.920352e+22 	 1.007637e+20 	 4.556101e-06 	 2.402772e-07 	 -1000.0000 	 -1000.0000 	 -1000.0000 	 -1000.0000 
	 22.4780 	 4.274284e-01 	 165.4386 	  0.7680 	 1.872920e+22 	 9.816333e+19 	 4.406870e-06 	 2.339850e-07 	 -1000.0000 	 -1000.0000 	 -1000.0000 	 -1000.0000 
	 22.7100 	 4.160509e-01 	 165.0599 	  0.7665 	 1.827260e+22 	 9.573775e+19 	 4.248480e-06 	 2.273898e-07 	 -1000.0000 	 -1000.0000 	 -1000.0000 	 -1000.0000 
	 22.9420 	 4.049482e-01 	 164.6370 	  0.7661 	 1.783091e+22 	 9.350784e+19 	 4.074241e-06 	 2.203413e-07 	 -1000.0000 	 -1000.0000 	 -1000.0000 	 -1000.0000 
	 23.1290 	 3.961741e-01 	 164.2680 	  0.7669 	 1.748386e+22 	 9.186704e+19 	 3.920663e-06 	 2.143391e-07 	 -1000.0000 	 -1000.0000 	 -1000.0000 	 -1000.0000 
	 23.3610 	 3.854757e-01 	 163.7809 	  0.7697 	 1.706209e+22 	 9.004121e+19 	 3.716872e-06 	 2.066799e-07 	 -1000.0000 	 -1000.0000 	 -1000.0000 	 -1000.0000 
	 23.5920 	 3.750242e-01 	 163.2794 	  0.7743 	 1.665000e+22 	 8.842448e+19 	 3.510850e-06 	 1.992143e-07 	 -1000.0000 	 -1000.0000 	 -1000.0000 	 -1000.0000 
	 23.8230 	 3.647938e-01 	 162.7866 	  0.7801 	 1.624453e+22 	 8.693309e+19 	 3.319083e-06 	 1.924690e-07 	 -1000.0000 	 -1000.0000 	 -1000.0000 	 -1000.0000 
	 24.0550 	 3.547637e-01 	 162.3265 	  0.7866 	 1.584279e+22 	 8.548341e+19 	 3.151575e-06 	 1.896782e-07 	 -1000.0000 	 -1000.0000 	 -1000.0000 	 -1000.0000 
	 24.2290 	 3.474154e-01 	 162.0199 	  0.7914 	 1.554436e+22 	 8.438073e+19 	 3.037998e-06 	 1.960857e-07 	 -1000.0000 	 -1000.0000 	 -1000.0000 	 -1000.0000 
	 24.4610 	 3.378667e-01 	 161.6823 	  0.7973 	 1.514940e+22 	 8.282954e+19 	 2.930461e-06 	 2.023295e-07 	 -1000.0000 	 -1000.0000 	 -1000.0000 	 -1000.0000 
	 24.6920 	 3.286430e-01 	 161.4245 	  0.8025 	 1.475996e+22 	 8.118032e+19 	 2.873358e-06 	 2.041769e-07 	 -1000.0000 	 -1000.0000 	 -1000.0000 	 -1000.0000 
	 24.9230 	 3.196865e-01 	 161.2190 	  0.8071 	 1.437618e+22 	 7.946408e+19 	 2.848145e-06 	 2.026155e-07 	 -1000.0000 	 -1000.0000 	 -1000.0000 	 -1000.0000 
	 25.1550 	 3.109435e-01 	 161.0382 	  0.8113 	 1.399840e+22 	 7.771314e+19 	 2.834983e-06 	 1.979816e-07 	 -1000.0000 	 -1000.0000 	 -1000.0000 	 -1000.0000 
	 25.3450 	 3.039596e-01 	 160.8903 	  0.8145 	 1.369609e+22 	 7.628706e+19 	 2.819214e-06 	 1.919835e-07 	 -1000.0000 	 -1000.0000 	 -1000.0000 	 -1000.0000 
	 25.5750 	 2.957039e-01 	 160.6892 	  0.8183 	 1.334025e+22 	 7.460269e+19 	 2.776908e-06 	 1.842845e-07 	 -1000.0000 	 -1000.0000 	 -1000.0000 	 -1000.0000 
	 25.8060 	 2.876201e-01 	 160.4531 	  0.8219 	 1.299443e+22 	 7.295864e+19 	 2.700033e-06 	 1.797637e-07 	 -1000.0000 	 -1000.0000 	 -1000.0000 	 -1000.0000 
	 26.0370 	 2.797370e-01 	 160.1865 	  0.8248 	 1.265935e+22 	 7.133120e+19 	 2.595731e-06 	 1.780904e-07 	 -1000.0000 	 -1000.0000 	 -1000.0000 	 -1000.0000 
	 26.2670 	 2.720805e-01 	 159.8948 	  0.8267 	 1.233551e+22 	 6.969493e+19 	 2.476682e-06 	 1.767248e-07 	 -1000.0000 	 -1000.0000 	 -1000.0000 	 -1000.0000 
	 26.4450 	 2.662822e-01 	 159.6538 	  0.8272 	 1.209102e+22 	 6.839724e+19 	 2.382521e-06 	 1.747325e-07 	 -1000.0000 	 -1000.0000 	 -1000.0000 	 -1000.0000 
	 26.6750 	 2.589488e-01 	 159.3261 	  0.8261 	 1.178233e+22 	 6.665492e+19 	 2.267441e-06 	 1.704433e-07 	 -1000.0000 	 -1000.0000 	 -1000.0000 	 -1000.0000 
	 26.9060 	 2.517625e-01 	 158.9833 	  0.8234 	 1.148002e+22 	 6.483559e+19 	 2.163695e-06 	 1.641823e-07 	 -1000.0000 	 -1000.0000 	 -1000.0000 	 -1000.0000 
	 27.1370 	 2.447590e-01 	 158.6329 	  0.8194 	 1.118526e+22 	 6.298309e+19 	 2.069538e-06 	 1.568276e-07 	 -1000.0000 	 -1000.0000 	 -1000.0000 	 -1000.0000 
	 27.3670 	 2.379712e-01 	 158.2825 	  0.8148 	 1.089910e+22 	 6.114325e+19 	 1.982305e-06 	 1.492921e-07 	 -1000.0000 	 -1000.0000 	 -1000.0000 	 -1000.0000 
	 27.5550 	 2.325628e-01 	 157.9993 	  0.8110 	 1.067052e+22 	 5.966898e+19 	 1.913966e-06 	 1.434722e-07 	 -1000.0000 	 -1000.0000 	 -1000.0000 	 -1000.0000 
	 27.7850 	 2.261203e-01 	 157.6616 	  0.8067 	 1.039721e+22 	 5.793275e+19 	 1.829735e-06 	 1.389090e-07 	 -1000.0000 	 -1000.0000 	 -1000.0000 	 -1000.0000 
	 28.0160 	 2.198377e-01 	 157.3322 	  0.8031 	 1.012957e+22 	 5.628143e+19 	 1.749523e-06 	 1.352453e-07 	 -1000.0000 	 -1000.0000 	 -1000.0000 	 -1000.0000 
	 28.2470 	 2.137312e-01 	 157.0076 	  0.8004 	 9.868591e+21 	 5.472586e+19 	 1.677683e-06 	 1.319310e-07 	 -1000.0000 	 -1000.0000 	 -1000.0000 	 -1000.0000 
	 28.4770 	 2.078132e-01 	 156.6837 	  0.7986 	 9.615139e+21 	 5.327452e+19 	 1.615989e-06 	 1.297390e-07 	 -1000.0000 	 -1000.0000 	 -1000.0000 	 -1000.0000 
	 28.6700 	 2.029627e-01 	 156.4077 	  0.7981 	 9.407235e+21 	 5.213342e+19 	 1.572505e-06 	 1.293820e-07 	 -1000.0000 	 -1000.0000 	 -1000.0000 	 -1000.0000 
	 28.9000 	 1.973093e-01 	 156.0693 	  0.7985 	 9.164980e+21 	 5.086671e+19 	 1.534707e-06 	 1.292458e-07 	 -1000.0000 	 -1000.0000 	 -1000.0000 	 -1000.0000 
	 29.1300 	 1.917889e-01 	 155.7201 	  0.8002 	 8.928529e+21 	 4.969485e+19 	 1.512237e-06 	 1.290879e-07 	 -1000.0000 	 -1000.0000 	 -1000.0000 	 -1000.0000 
	 29.3600 	 1.864029e-01 	 155.3643 	  0.8029 	 8.697700e+21 	 4.860319e+19 	 1.501890e-06 	 1.292004e-07 	 -1000.0000 	 -1000.0000 	 -1000.0000 	 -1000.0000 
	 29.5900 	 1.811526e-01 	 155.0057 	  0.8064 	 8.472311e+21 	 4.757669e+19 	 1.500149e-06 	 1.299150e-07 	 -1000.0000 	 -1000.0000 	 -1000.0000 	 -1000.0000 
	 29.7650 	 1.772497e-01 	 154.7335 	  0.8095 	 8.304353e+21 	 4.683005e+19 	 1.502425e-06 	 1.309598e-07 	 -1000.0000 	 -1000.0000 	 -1000.0000 	 -1000.0000 
	 29.9950 	 1.722421e-01 	 154.3803 	  0.8140 	 8.088092e+21 	 4.588175e+19 	 1.507356e-06 	 1.331011e-07 	 -1000.0000 	 -1000.0000 	 -1000.0000 	 -1000.0000 
	 30.2240 	 1.673917e-01 	 154.0430 	  0.8189 	 7.877370e+21 	 4.496105e+19 	 1.512749e-06 	 1.361338e-07 	 -1000.0000 	 -1000.0000 	 -1000.0000 	 -1000.0000 
	 30.4530 	 1.626716e-01 	 153.7350 	  0.8239 	 7.670479e+21 	 4.404883e+19 	 1.518982e-06 	 1.397089e-07 	 -1000.0000 	 -1000.0000 	 -1000.0000 	 -1000.0000 
	 30.6830 	 1.580567e-01 	 153.4704 	  0.8288 	 7.465763e+21 	 4.312610e+19 	 1.526974e-06 	 1.434751e-07 	 -1000.0000 	 -1000.0000 	 -1000.0000 	 -1000.0000 
	 30.8750 	 1.542971e-01 	 153.2952 	  0.8328 	 7.296669e+21 	 4.233989e+19 	 1.535717e-06 	 1.466295e-07 	 -1000.0000 	 -1000.0000 	 -1000.0000 	 -1000.0000 
	 31.1050 	 1.499002e-01 	 153.1523 	  0.8373 	 7.095627e+21 	 4.136655e+19 	 1.549530e-06 	 1.503850e-07 	 -1000.0000 	 -1000.0000 	 -1000.0000 	 -1000.0000 
	 31.3340 	 1.456363e-01 	 153.0798 	  0.8413 	 6.897294e+21 	 4.036559e+19 	 1.567165e-06 	 1.541056e-07 	 -1000.0000 	 -1000.0000 	 -1000.0000 	 -1000.0000 
	 31.5630 	 1.414874e-01 	 153.0578 	  0.8451 	 6.701832e+21 	 3.935017e+19 	 1.587932e-06 	 1.579044e-07 	 -1000.0000 	 -1000.0000 	 -1000.0000 	 -1000.0000 
	 31.7930 	 1.374372e-01 	 153.0666 	  0.8489 	 6.509488e+21 	 3.833389e+19 	 1.610993e-06 	 1.618696e-07 	 -1000.0000 	 -1000.0000 	 -1000.0000 	 -1000.0000 
	 31.9710 	 1.343839e-01 	 153.0820 	  0.8518 	 6.364054e+21 	 3.756139e+19 	 1.629742e-06 	 1.650245e-07 	 -1000.0000 	 -1000.0000 	 -1000.0000 	 -1000.0000 
	 32.1990 	 1.305775e-01 	 153.0969 	  0.8557 	 6.182981e+21 	 3.660401e+19 	 1.654186e-06 	 1.690793e-07 	 -1000.0000 	 -1000.0000 	 -1000.0000 	 -1000.0000 
	 32.4280 	 1.268704e-01 	 153.0988 	  0.8599 	 6.007277e+21 	 3.568470e+19 	 1.678246e-06 	 1.730331e-07 	 -1000.0000 	 -1000.0000 	 -1000.0000 	 -1000.0000 
	 32.6570 	 1.232745e-01 	 153.0887 	  0.8643 	 5.837401e+21 	 3.480475e+19 	 1.700655e-06 	 1.767127e-07 	 -1000.0000 	 -1000.0000 	 -1000.0000 	 -1000.0000 
	 32.8850 	 1.197997e-01 	 153.0681 	  0.8688 	 5.673680e+21 	 3.396432e+19 	 1.720151e-06 	 1.799706e-07 	 -1000.0000 	 -1000.0000 	 -1000.0000 	 -1000.0000 
	 33.0750 	 1.169805e-01 	 153.0441 	  0.8729 	 5.541101e+21 	 3.328870e+19 	 1.733370e-06 	 1.823160e-07 	 -1000.0000 	 -1000.0000 	 -1000.0000 	 -1000.0000 
	 33.3050 	 1.136565e-01 	 153.0081 	  0.8779 	 5.384975e+21 	 3.249794e+19 	 1.744558e-06 	 1.846873e-07 	 -1000.0000 	 -1000.0000 	 -1000.0000 	 -1000.0000 
	 33.5340 	 1.104393e-01 	 152.9653 	  0.8832 	 5.234021e+21 	 3.173705e+19 	 1.750163e-06 	 1.865546e-07 	 -1000.0000 	 -1000.0000 	 -1000.0000 	 -1000.0000 
	 33.7630 	 1.073106e-01 	 152.9160 	  0.8886 	 5.087376e+21 	 3.099953e+19 	 1.751019e-06 	 1.879481e-07 	 -1000.0000 	 -1000.0000 	 -1000.0000 	 -1000.0000 
	 33.9930 	 1.042540e-01 	 152.8603 	  0.8941 	 4.944255e+21 	 3.027926e+19 	 1.748006e-06 	 1.888923e-07 	 -1000.0000 	 -1000.0000 	 -1000.0000 	 -1000.0000 
	 34.1810 	 1.018169e-01 	 152.8102 	  0.8985 	 4.830249e+21 	 2.970365e+19 	 1.743295e-06 	 1.893510e-07 	 -1000.0000 	 -1000.0000 	 -1000.0000 	 -1000.0000 
	 34.4090 	 9.893227e-02 	 152.7444 	  0.9040 	 4.695442e+21 	 2.901895e+19 	 1.735595e-06 	 1.895717e-07 	 -1000.0000 	 -1000.0000 	 -1000.0000 	 -1000.0000 
	 34.6380 	 9.611206e-02 	 152.6719 	  0.9093 	 4.563790e+21 	 2.834535e+19 	 1.726382e-06 	 1.894937e-07 	 -1000.0000 	 -1000.0000 	 -1000.0000 	 -1000.0000 
	 34.8670 	 9.336922e-02 	 152.5918 	  0.9146 	 4.435907e+21 	 2.768716e+19 	 1.716331e-06 	 1.892157e-07 	 -1000.0000 	 -1000.0000 	 -1000.0000 	 -1000.0000 
